#"Step","Potential Energy (kJ/mole)","Temperature (K)","Box Volume (nm^3)"
100,-415107.8903036648,100.14686676625561,243.42089720560304
200,-402139.5653719065,166.8866688956219,240.87392172800097
300,-393330.4381960767,210.16031285573385,240.25658113113636
400,-387237.5447247777,239.10660635297376,240.25658113113636
500,-382493.2187226534,257.54000836769916,240.06187782483156
600,-379132.4371702256,270.14721657609465,240.06187782483156
700,-376628.12705104734,276.6628219435239,239.16486682015767
800,-375260.7752889775,287.2853424071389,239.16486682015767
900,-373814.9208402245,294.82206479398906,239.16486682015767
1000,-372544.32507844124,292.88910301099963,239.16486682015767
1100,-372321.2583899173,294.5302565269552,239.16486682015767
1200,-371761.09485901246,295.7876023661447,236.8765034944206
1300,-371411.5115163115,297.05547807297745,236.16659483961362
1400,-370949.1416427098,297.83985829915815,236.16659483961362
1500,-371396.3914632653,299.63723659894526,234.799387184242
1600,-371140.003986241,297.26265033217817,234.45423824681205
1700,-371225.60472030484,297.74292992905544,234.64437537509215
1800,-371163.42901109415,296.7671522107539,233.98155762974372
1900,-371670.8204499257,299.14262136582283,233.98155762974372
2000,-371954.1968363718,298.77146158510584,233.3816693088179
2100,-371731.07579708175,300.9207283594062,233.382353425592
2200,-371595.91108491085,299.01733794482095,233.13638027212846
2300,-371754.5972633877,303.2510001962465,233.1489184226325
2400,-370815.93410354416,299.2140932118869,233.1489184226325
2500,-371341.9023686535,302.77242270106694,232.8998759662108
2600,-370785.8162340045,299.85676331745225,232.69837751605004
2700,-370775.50307825074,302.2070450996309,232.59064214476683
2800,-370022.55827129027,299.2336257411638,232.65207205221992
2900,-370443.65004774526,304.2020928915852,232.65207205221992
3000,-370933.5083139089,299.46873229836166,232.65207205221992
3100,-371453.5440518143,301.3617282312432,232.65207205221992
3200,-371310.67292627535,303.7531560346176,232.01874847608298
3300,-369781.47172780364,300.4126875941944,232.01874847608298
3400,-371080.5774525072,302.8566352432671,232.01874847608298
3500,-370761.0819781978,303.3102060096733,232.05399037369952
3600,-371037.11614307103,305.0949316387997,232.37595417822982
3700,-370536.0975191986,302.9618915119162,231.88740168452773
3800,-370573.82963379344,303.6609974276799,232.40023377833722
3900,-370217.2725793951,302.32756116344746,232.40023377833722
4000,-370372.97999618395,301.9343592766522,232.34409451516305
4100,-370585.1200703211,302.91786751733815,232.31687160960547
4200,-370868.4642152362,302.2917410687672,232.2556648174087
4300,-371290.0684116776,301.8194507825819,232.2556648174087
4400,-371733.17947193503,303.837671481133,231.5329501274223
4500,-371008.46265829867,299.8447541996863,231.5329501274223
4600,-370961.33037877874,297.55367076481303,231.5329501274223
4700,-371570.894675031,299.16185555540574,231.7911617935659
4800,-371333.77130768297,300.4154139506047,231.8725335627791
4900,-370762.5849761872,301.983255477313,231.8725335627791
5000,-370730.7683926851,302.52486853412915,231.8725335627791
5100,-371131.298489651,303.52890884943497,231.8725335627791
5200,-371971.2771986717,301.49393536026673,231.62758409611538
5300,-371744.5808784216,302.11051409004017,231.3433517201606
5400,-372681.6634194651,302.71234401470326,231.3433517201606
5500,-371487.8378428758,299.7981094103025,231.3433517201606
5600,-371497.72623870487,300.0670818777434,232.11839132361945
5700,-371908.4344475644,301.3891188066977,232.43895696866335
5800,-371239.8647043,297.2976690945791,232.4357651673519
5900,-371671.1920923633,297.05937775185186,232.23609571383886
6000,-372126.2816446982,299.48599689830706,232.47257646971087
6100,-371780.30176708905,299.12026653634643,232.20311842988002
6200,-371403.4406258006,299.11229430712183,231.98981293180194
6300,-371461.76052834344,299.9982012277963,232.9372369457587
6400,-370730.9098126152,300.48312678175523,232.1836262561997
6500,-371310.86415727454,299.68008046475387,232.1836262561997
6600,-371752.08157891803,304.3675465896468,232.15772098219566
6700,-371564.53341938206,301.4314935531334,232.15772098219566
6800,-371024.8094998699,299.5984214552658,232.60924121500003
6900,-371255.3662255886,302.65508652781665,232.57337430645663
7000,-370559.4325884413,298.2159711681648,232.57337430645663
7100,-370595.4920204242,300.80115729634184,232.57337430645663
7200,-371297.7080016633,303.9778194613189,232.57337430645663
7300,-370652.3162813001,302.6209029869673,233.07344726812278
7400,-370705.04024513485,305.49243008892904,233.07344726812278
7500,-370672.8486838414,302.80441522903226,232.9465841725089
7600,-371227.4557926649,304.7463050175672,232.93588982712077
7700,-371113.22273510566,301.2144031282524,233.18382094184844
7800,-371191.7540729189,303.6279011121018,232.8041562502994
7900,-371182.51446268416,300.6393635488539,233.0551187080495
8000,-372208.85890022345,298.5293387582611,232.48476698223433
8100,-371433.54040014633,299.6411187728494,232.48476698223433
8200,-371788.0758977899,299.3063030058741,232.4371964059754
8300,-372163.2585194169,300.730698834175,231.9467185348862
8400,-371591.799109156,300.5083207224169,231.9467185348862
8500,-370763.8044307059,301.57385317914594,231.9467185348862
8600,-370990.1269699128,302.2813656716,232.0738662775465
8700,-371526.093378823,301.7554061189075,232.0738662775465
8800,-370568.94388727844,298.7167884236458,233.06880731891766
8900,-370806.1849485019,296.3464602055211,233.08679028282927
9000,-370644.7387784417,299.01958143792183,233.17196587450908
9100,-371181.0810222483,299.98770944534294,232.74101354451992
9200,-371133.19724938454,300.1486103935575,232.74101354451992
9300,-372018.3858029877,300.56682514061475,232.37072670677372
9400,-372364.59387362294,299.2413550282503,232.37072670677372
9500,-371929.312254834,301.2367709749687,232.37072670677372
9600,-371824.3281769714,300.67129877379966,232.37072670677372
9700,-372068.27748531575,302.86833671957845,231.72786487447107
9800,-371734.51251229766,300.77284997655136,231.72786487447107
9900,-371194.43445687334,301.7121318826393,232.15464770360722
10000,-371453.40285029134,300.1806903295081,232.4066592696306
10100,-372531.77218453394,300.50263174892893,231.43434466797942
10200,-372436.97901110776,299.2410027525213,231.32534821757855
10300,-372396.49838794855,301.34957322232583,231.32534821757855
10400,-372143.0896195697,300.29578949142297,231.32534821757855
10500,-372029.8987706423,300.46053148835557,231.32534821757855
10600,-372112.84621307114,300.90531023379157,231.32534821757855
10700,-371977.4575499979,298.865080614715,231.29035216388164
10800,-371664.8874188479,300.8176206681021,231.29035216388164
10900,-372133.94319463347,302.84685211668335,231.75176710867532
11000,-371760.8999673222,298.2916628877004,231.4585107350591
11100,-371937.4086028057,301.9429729562402,231.23672704625443
11200,-371764.51617170306,299.1884770635708,230.86352460269237
11300,-371647.35506637377,300.3181312676947,230.86352460269237
11400,-371734.9279203216,299.1686751186683,230.21165899481002
11500,-371968.10295136465,301.69356936976664,230.82987002270974
11600,-371881.07344533864,298.74931196499244,231.21128749867316
11700,-372186.71320747084,301.8530053371929,232.03599376042732
11800,-371050.67709113134,297.78611748325227,232.03599376042732
11900,-371603.6529962324,300.3893530023817,232.03599376042732
12000,-371574.40075311024,299.9314306241473,232.03599376042732
12100,-371540.6755280194,302.368512361499,232.086521287867
12200,-370957.6149289773,300.1871855257232,231.9145407979621
12300,-370615.2141798436,298.65511809988226,231.9145407979621
12400,-370634.3197688486,299.78238773728003,231.9145407979621
12500,-371395.5523635147,304.1891794146072,231.91726862286112
12600,-370705.8407672412,299.8129123416427,231.91726862286112
12700,-371481.0334801132,299.5721932739922,232.20774070073858
12800,-371810.7658948472,299.436646430478,232.06697800109083
12900,-370947.92643515806,302.2156085536108,232.06697800109083
13000,-371303.6389773958,303.8474908660203,231.6611416438993
13100,-371145.89412689675,303.29559671262155,231.6611416438993
13200,-371212.26634755766,301.7170411779942,231.91727108816355
13300,-371592.09020475345,299.30155206471306,231.70323044857605
13400,-372436.6553127616,303.42307766673093,231.44932768606614
13500,-372274.73315225414,302.242713650606,231.52965841926212
13600,-372459.1888403588,300.4302284809578,230.72241805606612
13700,-372527.7012117013,300.7839540289664,230.7512403091129
13800,-372747.4462796262,302.3714259743683,231.03764890486946
13900,-371835.87941046094,301.59835998934346,231.80260584146004
14000,-371427.7964147316,299.46143230890175,231.43437206628505
14100,-372177.61652843695,306.54779303535435,230.73696432726834
14200,-371576.68596185674,300.91496171650823,230.87626139951652
14300,-372071.0343131853,301.09078394415775,230.92813451954913
14400,-372254.894932566,301.1526218257648,230.60255452913555
14500,-372209.48083752504,301.5582394793658,231.32706125835082
14600,-372134.1610944745,300.7815555677753,232.02965936123113
14700,-371572.96056926274,300.70037710304064,231.33515567973387
14800,-371868.1504525267,302.82167352190766,231.1977657506193
14900,-372640.6447264555,301.15865112988007,231.51480240669056
15000,-372521.8749584044,301.9495560609863,230.9289416755409
15100,-372077.159664158,301.7487658000172,231.6804590077842
15200,-372678.5566470341,303.84048991388966,232.1157598680769
15300,-373467.93021725584,304.76955834632804,231.95503692759257
15400,-372358.07212906843,300.69685999801715,232.05007424317137
15500,-372213.5458611782,302.23767953724985,231.28064433985037
15600,-373278.1991934995,301.88513490707953,232.11856094922678
15700,-373004.8307409675,301.2708952795856,232.11856094922678
15800,-373067.42641141743,302.6939303055835,231.48969020955118
15900,-372701.6532322921,297.79774433464473,231.8087854349637
16000,-372429.20564877393,297.3906687468999,231.74339683764327
16100,-373242.1205584761,300.749560895532,230.7853360831496
16200,-372952.020756582,299.5145182269446,230.81443509505843
16300,-372586.66426130076,299.5146825319181,230.5917510309222
16400,-373096.79601334786,301.2046355935761,230.62334846046355
16500,-373380.0431548944,300.80288658197003,231.3093312864447
16600,-372512.4233445322,297.7016034959215,231.3093312864447
16700,-372130.3193299793,297.43257728063924,231.4042243519909
16800,-372899.1064492653,299.3030200089753,231.11331792281717
16900,-373365.39210470906,300.09894896695056,231.11331792281717
17000,-372828.4255550379,299.1717605406611,231.8916070448993
17100,-373016.551881308,300.4162809350421,231.17500379975738
17200,-372022.2438107603,299.29027970021156,231.17500379975738
17300,-371232.01780665474,298.04450509026697,231.85699917065446
17400,-372103.5612226495,299.99061559073687,231.4765198667644
17500,-371635.785062572,301.5751718374925,230.9111013965811
17600,-372073.0820042838,302.6111493150999,230.5578850523887
17700,-371457.12672788685,301.9937602242247,230.5578850523887
17800,-372224.79016334447,299.3674717853634,230.44885859999584
17900,-372281.8152181861,299.37337336497075,230.50642616805692
18000,-372291.27318990737,297.5574929208248,230.37039207978296
18100,-372945.6500511393,299.888148428236,230.37039207978296
18200,-371757.0122632039,300.25044584689743,231.10133040075038
18300,-371767.2459030842,301.06612637780944,231.10133040075038
18400,-371851.6945843731,298.0249356554962,231.10133040075038
18500,-372923.10359766474,304.00641881563536,231.10133040075038
18600,-372162.4738484343,300.5584629919316,231.53270137810264
18700,-371427.6513950048,300.8541541397486,231.56619917031892
18800,-372092.4975627706,300.56506276208034,231.56619917031892
18900,-371801.9008285939,299.8566315513587,231.73743205666497
19000,-372243.39232618676,298.4133481801213,231.6013643915829
19100,-371462.02179225965,298.8737055126125,231.96727674142554
19200,-372061.50843950466,302.30416598515575,231.96727674142554
19300,-371390.3955565298,301.8679587808484,231.9715222850137
19400,-371146.80631512677,301.563441769083,231.98774196024343
19500,-370363.8862709748,300.83747745420357,231.4315734848813
19600,-370300.28737952036,299.75112313706546,231.47317102248968
19700,-371348.0603596623,301.49716889393704,231.13310320969632
19800,-371231.0662882095,298.1607699814877,231.28871849444786
19900,-371876.0162785287,298.82802946686,230.9183792325869
20000,-372017.8283216327,299.30494479188104,230.9183792325869
